Type :,DIL805
Test :,200306 Aus 16 1000°C 30 min iso 760°C 15 min q


;Time;Temperature;Change in Length;HF Power
 1;0.00000000;26.70248222;0.00000000;0.00000000
 2;0.10074400;26.76827431;-0.19635701;0.00000000
 3;0.20011900;26.72237587;-0.17453957;0.00000000
 4;0.30060899;26.75741768;-0.19908428;0.00000000
 5;0.40005901;26.88287354;-0.23181033;0.00000000
 6;0.50050801;26.77889442;-0.22362900;0.00000000
 7;0.60101002;26.70779228;-0.23453760;0.00000000
 8;0.70042300;26.95846558;-0.23453760;0.00000000
 9;0.80090898;26.91177177;-0.26999092;0.00000000
 10;0.90027899;26.86747360;-0.23181033;0.00000000
 11;1.00080895;26.86298370;-0.24544644;0.00000000
 12;1.10021603;26.60850716;-0.23453760;0.00000000
 13;1.20070899;26.61012268;-0.19908428;0.00000000
 14;1.30011904;26.89507484;-0.24271917;0.00000000
 15;1.40057504;27.07911491;-0.22908330;0.00000000
 16;1.50098097;26.82396507;-0.23453760;0.00000000
 17;1.60037506;27.09504128;-0.23453760;0.41663766
 18;1.70081997;26.96295547;-0.22090173;0.00000000
 19;1.80026901;26.53207016;-0.20999289;0.00000000
 20;1.90076602;26.70248222;-0.18817544;0.00000000
 21;2.00024009;27.07221985;-0.20453858;0.44338822
 22;2.10066509;26.87809944;-0.25090075;0.22783577
 23;2.20019007;27.02715111;-0.23453760;0.00000000
 24;2.30063510;27.05607224;-0.23726487;0.00000000
 25;2.40003490;26.82401848;-0.23999190;0.09271741
 26;2.50053096;26.76827431;-0.20999289;0.06635003
 27;2.60103703;26.73537827;-0.21272016;0.38563049
 28;2.70051098;26.87067413;-0.22635603;0.77136719
 29;2.80093193;26.88818169;-0.22362900;3.63116789
 30;2.90016890;27.34922409;-0.14999485;9.64947224
 31;3.00058603;29.76826668;0.12272334;9.60425186
 32;3.10106707;31.50510597;0.40362310;8.95449638
 33;3.20040393;32.63830185;0.54816389;7.03240013
 34;3.30080104;33.37030029;0.67906857;6.73399544
 35;3.40020490;33.97650528;0.76088405;6.85414076
 36;3.50065994;34.94005966;0.84542680;6.70283842
 37;3.60012007;35.60415268;1.01996636;7.39779377
 38;3.70053005;36.65426636;1.08541870;7.74804401
 39;3.80101895;38.04146957;1.19723320;7.67515612
 40;3.90046906;38.73459244;1.34450102;7.66894388
 41;4.00096607;39.91220856;1.50267792;7.62844181
 42;4.10033417;41.28627396;1.63903666;7.26449203
 43;4.20084000;42.07306671;1.78357744;7.26571035
 44;4.30023479;43.08767319;1.88721037;7.14622784
 45;4.40064096;44.06151962;2.00447941;7.25308371
 46;4.50012016;44.90929031;2.14083862;7.22165680
 47;4.60062599;45.91177368;2.25265312;7.34916306
 48;4.70099115;46.88519669;2.38083029;7.43989086
 49;4.80040503;47.86299133;2.52537107;7.75991201
 50;4.90091610;49.08613205;2.66445732;7.48767281
 51;5.00035191;49.93088913;2.79263496;7.60741425
 52;5.10090303;50.85033035;2.92626715;7.62024403
 53;5.20029211;52.13253403;3.08444357;7.07426977
 54;5.30071592;52.98427582;3.17171335;7.32025623
 55;5.40011978;54.10934067;3.30534554;6.95629358
 56;5.50053120;54.92511749;3.44715881;7.48754072
 57;5.60089111;55.90127563;3.55079174;7.48594999
 58;5.70026493;56.92995453;3.71442270;7.52460957
 59;5.80073214;58.37918854;3.83987331;7.35413504
 60;5.90014076;58.98955536;3.97623253;7.67636395
 61;6.00067616;59.94472504;4.07441092;7.41890383
 62;6.10010099;61.00196457;4.24622345;7.40192842
 63;6.20060205;62.09244156;4.37712812;7.18014193
 64;6.30003500;62.93679428;4.51894188;7.17542696
 65;6.40054703;64.03558350;4.62802887;7.47891951
 66;6.50101709;64.98193359;4.73438931;7.31334972
 67;6.60048580;65.82554626;4.87347555;7.75234747
 68;6.70100307;66.87102509;5.01256180;7.71775770
 69;6.80046082;67.89801788;5.16255665;7.57184744
 70;6.90097094;69.17987823;5.29891586;7.40371656
 71;7.00039196;70.27263641;5.42982054;7.29716015
 72;7.10088778;71.02654266;5.59617853;7.26534081
 73;7.20033312;72.14181519;5.68617582;7.29301071
 74;7.30081797;72.92278290;5.84980726;7.48850870
 75;7.40023804;73.86885834;5.92889547;7.60350943
 76;7.50076914;75.03522491;6.07616282;7.52603722
 77;7.60016823;75.92847443;6.23433924;7.34520531
 78;7.70069408;76.64782715;6.35160875;7.40471172
 79;7.80008888;77.89643097;6.47705889;7.60777903
 80;7.90062380;78.76679993;6.61614466;7.99287367
 81;8.00006008;79.92343140;6.76341295;7.63639688
 82;8.10056496;81.24186707;6.89159060;7.30758286
 83;8.20104599;81.94974518;7.00067759;7.57128477
 84;8.30048943;83.15689087;7.13158274;7.28685951
 85;8.40095615;83.84918976;7.27066851;7.54677057
 86;8.50038624;84.79973602;7.39884615;7.62430239
 87;8.60085106;85.74047852;7.50247908;7.91250944
 88;8.70028496;87.11379242;7.67429209;7.56988239
 89;8.80069160;88.21328735;7.83246851;7.32965946
 90;8.90017033;89.08721161;7.97155476;7.47175026
 91;9.00065994;89.85566711;8.10791492;7.72362328
 92;9.10006046;91.13253784;8.20609188;7.38261795
 93;9.20059109;92.16745758;8.33699703;7.36257792
 94;9.30006027;92.90473175;8.47608280;7.64243031
 95;9.40048599;94.06762695;8.56880856;7.50254107
 96;9.50098705;94.90531921;8.72152996;7.66500664
 97;9.60044193;95.66995239;8.83061695;8.20166397
 98;9.70074081;97.01232147;8.98606777;7.82085419
 99;9.80003357;97.97776031;9.13878918;7.77918243
 100;9.90048981;99.28803253;9.27514744;7.39560699
 101;10.00100136;100.03408051;9.40878010;7.29179096
 102;10.10039616;101.01831818;9.56150150;7.28465796
 103;10.20088100;102.05867004;9.64604473;7.30567741
 104;10.30028152;102.92998505;9.79604053;7.22107935
 105;10.40072060;103.75333405;9.91058254;7.83635664
 106;10.50009537;104.98762512;10.06603146;7.90252972
 107;10.60055065;105.86402893;10.18875408;7.96178722
 108;10.70105743;107.20810699;10.33329487;7.66170216
 109;10.80041027;108.17205048;10.48601818;7.63158035
 110;10.90087986;109.20412445;10.60601330;7.27781963
 111;11.00026608;110.02265930;10.75055408;7.48091316
 112;11.10070515;110.99183655;10.85146046;7.35341120
 113;11.20003986;111.67691040;10.96600056;7.48352528
 114;11.30051041;112.80803680;11.07236195;7.62957621
 115;11.40093994;113.99360657;11.26599216;7.65357018
 116;11.50031853;115.06690979;11.40235043;7.61214066
 117;11.60081577;115.99295807;11.58234501;7.76197004
 118;11.70032120;116.97240448;11.72961330;7.84932327
 119;11.80085182;117.95855713;11.81142712;7.70766163
 120;11.90027714;118.92641449;11.97505856;7.76949167
 121;12.00071621;120.31339264;12.08141994;6.94322634
 122;12.10000610;120.76071167;12.19323444;7.85654545
 123;12.20029354;121.93165588;12.36504650;7.91831112
 124;12.30076981;123.09849548;12.47958851;7.53917027
 125;12.40018368;123.85692596;12.61594677;7.95640898
 126;12.50067043;125.06652832;12.77957821;7.64858341
 127;12.60004139;126.02636719;12.90502834;7.70352936
 128;12.70055485;126.88230133;13.05229664;7.56445217
 129;12.80099010;128.09748840;13.20501804;7.47048616
 130;12.90035915;129.06999207;13.28137875;7.68585968
 131;13.00081921;129.78587341;13.45046520;7.89070845
 132;13.10023403;131.03520203;13.58137035;7.69907904
 133;13.20070457;132.02786255;13.74772739;7.79838800
 134;13.30011463;133.08671570;13.87590504;7.63380098
 135;13.40065670;134.07405090;13.99862957;7.62476158
 136;13.50006390;135.02577209;14.17589664;7.42611599
 137;13.60065079;136.02867126;14.29043674;7.53520441
 138;13.70010281;137.02050781;14.42134190;7.73411369
 139;13.80061245;137.89183044;14.54133892;7.68216848
 140;13.90001011;138.96154785;14.68315220;7.44485855
 141;14.00042629;140.00357056;14.81405735;7.69092607
 142;14.10094833;141.02957153;14.96950626;7.74549484
 143;14.20038223;141.90318298;15.09768391;7.85628796
 144;14.30077171;143.02850342;15.21495152;7.88010597
 145;14.40009117;143.90977478;15.38131046;7.79875851
 146;14.50050068;144.75439453;15.48494434;8.00760841
 147;14.60083008;145.99523926;15.65675640;7.80492544
 148;14.70018482;147.03353882;15.75220776;7.84745741
 149;14.80069447;147.95544434;15.91583920;7.89749050
 150;14.90009022;148.95668030;16.07128906;7.74939346
 151;15.00059605;149.88871765;16.21855545;7.99202681
 152;15.10004997;150.98898315;16.33582306;7.88406181
 153;15.20054626;152.03816223;16.46672821;7.76546955
 154;15.30103207;153.11079407;16.59217834;7.48790979
 155;15.40044308;153.91950989;16.73672104;7.82877731
 156;15.50086117;154.90748596;16.86217117;7.79818106
 157;15.60023689;156.07276917;17.03398132;7.75230455
 158;15.70069218;157.12829590;17.12670898;7.63024282
 159;15.80009079;157.96911621;17.29033661;7.73199844
 160;15.90060139;159.00613403;17.43487930;7.83438396
 161;16.00103378;159.83634949;17.60123825;8.09603119
 162;16.10036469;160.97412109;17.74850464;8.20931625
 163;16.20080566;162.11828613;17.89304733;7.83897638
 164;16.30008316;163.02679443;18.04576874;7.81039429
 165;16.40060616;164.13255310;18.18212891;7.57711792
 166;16.50003052;165.10585022;18.34030533;7.66567278
 167;16.60043907;166.03695679;18.46302795;7.49372768
 168;16.70097160;166.98629761;18.56938553;7.72358990
 169;16.80037689;167.94439697;18.73301697;7.94604826
 170;16.90083122;168.91777039;18.86937714;7.96369028
 171;17.00026512;169.82160950;18.99482727;8.15208149
 172;17.10066605;171.30178833;19.14754868;7.52274752
 173;17.20005035;172.11413574;19.27299881;7.58793259
 174;17.30053520;172.89038086;19.41754150;8.03558540
 175;17.40089989;173.97280884;19.55390167;7.87886810
 176;17.50021935;174.88313293;19.66571426;8.14676571
 177;17.60058975;176.11544800;19.81570816;7.61702633
 178;17.70089912;176.99166870;19.92752457;7.90807056
 179;17.80032921;178.12745667;20.10478973;7.79564953
 180;17.90088463;179.02804565;20.28751373;7.83319998
 181;18.00035858;180.37693787;20.36932755;7.47894239
 182;18.10086632;180.83129883;20.51659393;7.82826328
 183;18.20030022;181.88719177;20.67204666;8.03249073
 184;18.30071068;182.95729065;20.82476807;7.93697166
 185;18.40105438;184.12564087;20.95840073;8.00012779
 186;18.50036812;185.09922791;21.11384964;8.04072762
 187;18.60086441;185.91754150;21.25293350;8.18191719
 188;18.70029068;187.07165527;21.43292999;8.27947617
 189;18.80073547;188.17190552;21.55565262;7.61381435
 190;18.90004349;189.26605225;21.68383026;7.62576008
 191;19.00051308;189.97010803;21.81200790;7.65476656
 192;19.10001945;190.79531860;21.95654678;8.06180763
 193;19.20046806;192.13592529;22.13108826;7.64872503
 194;19.30094147;192.92068481;22.21835709;7.96581459
 195;19.40033722;193.91838074;22.40653229;8.27025318
 196;19.50071907;194.92001343;22.51562119;8.06460190
 197;19.60011864;195.92945862;22.67107010;8.26585579
 198;19.70060349;197.04156494;22.77743149;8.09081459
 199;19.80002975;197.99745178;22.94924164;8.13077259
 200;19.90048981;199.10803223;23.10469055;7.81585503
 201;20.00087929;200.06823730;23.23832321;8.03984070
 202;20.10020828;201.10548401;23.37468338;7.83213091
 203;20.20062447;202.03584290;23.51104355;7.85737038
 204;20.30003357;202.89199829;23.65285492;7.84254742
 205;20.40058327;203.97529602;23.81648636;8.07986546
 206;20.50094032;204.91389465;23.94739151;8.06782246
 207;20.60037231;205.98683167;24.10829544;8.26323128
 208;20.70083427;207.10836792;24.24465561;8.12537766
 209;20.80024338;208.17807007;24.39192200;7.88426447
 210;20.90058327;209.04223633;24.54737091;7.92852926
 211;21.00000191;210.10345459;24.65100479;7.90632343
 212;21.10047340;210.92114258;24.80099869;7.90666533
 213;21.20096397;211.91329956;24.93463135;8.12416458
 214;21.30027771;212.94714355;25.09280777;8.04774094
 215;21.40080261;213.89976501;25.26189423;8.14101315
 216;21.50028419;214.89758301;25.40370560;8.15255547
 217;21.60076332;216.17651367;25.57824707;7.89691210
 218;21.70008278;216.98155212;25.70369720;8.16147137
 219;21.80045891;217.92123413;25.86187363;7.84742069
 220;21.90081215;219.08015442;25.97096252;7.90465260
 221;22.00024223;219.87947083;26.11277390;8.25819397
 222;22.10062790;220.97267151;26.26276779;8.13783646
 223;22.20105934;222.18655396;26.44549179;7.86804247
 224;22.30039024;223.09358215;26.57094193;8.06736374
 225;22.40081215;224.05868530;26.71820831;8.06682014
 226;22.50028610;224.95942688;26.83275223;8.04409504
 227;22.60079193;226.02940369;26.99637985;7.82333374
 228;22.70011139;227.06854248;27.12455750;7.81389427
 229;22.80055237;227.93261719;27.27728271;8.23841476
 230;22.90095711;228.99224854;27.39727783;8.29053783
 231;23.00042152;229.99772644;27.57999802;8.41799450
 232;23.10095215;230.84242249;27.73817444;8.29562759
 233;23.20043755;232.10136414;27.88271713;8.13031006
 234;23.30087852;232.89903259;28.05179977;8.28195953
 235;23.40021706;234.09924316;28.17997742;7.90469122
 236;23.50057602;234.97657776;28.32452011;8.21308327
 237;23.60096169;235.99578857;28.48269653;8.20355606
 238;23.70038605;236.89878845;28.62723541;8.05590534
 239;23.80091286;238.06242371;28.77450562;8.20657730
 240;23.90032578;238.99517822;28.94086075;8.26815033
 241;24.00075531;240.06652832;29.10994720;8.24376011
 242;24.10017014;241.13366699;29.22994232;7.95990086
 243;24.20048523;241.89645386;29.39902878;8.16299629
 244;24.30092621;243.02513123;29.58720398;8.30749702
 245;24.40029144;243.98185730;29.70174789;8.20708847
 246;24.50072479;244.97380066;29.86537933;8.56532860
 247;24.60011482;246.36428833;29.99901199;7.85636997
 248;24.70054436;247.11065674;30.10264206;7.90198374
 249;24.80103493;248.06660461;30.29899979;7.80474424
 250;24.90043449;248.94047546;30.41081619;8.15009689
 251;25.00076485;249.90574646;30.57717133;8.13970661
 252;25.10021591;251.02174377;30.74625778;8.05150604
 253;25.20068550;252.00134277;30.86625290;8.04029751
 254;25.30010605;252.86111450;31.01079559;8.53997993
 255;25.40063095;253.94754028;31.17442703;8.27189255
 256;25.50007057;255.09027100;31.27533340;8.11995506
 257;25.60059929;255.93710327;31.42259979;8.36035156
 258;25.70001030;256.76736450;31.60804749;8.50426579
 259;25.80049133;258.01544189;31.75804138;8.32658672
 260;25.90104294;259.14682007;31.91894531;8.25816631
 261;26.00051117;260.02774048;32.05803299;8.39016247
 262;26.10097694;261.33328247;32.22439194;8.01103592
 263;26.20042610;262.20419312;32.38802338;8.06504631
 264;26.30092812;263.10647583;32.54619980;7.95972538
 265;26.40027618;263.96969604;32.68255615;8.35723591
 266;26.50060272;264.85525513;32.81618881;8.48123741
 267;26.60105705;265.88308716;32.97436523;8.57760525
 268;26.70051765;266.99395752;33.12163544;8.16418362
 269;26.80099297;268.10958862;33.29344559;8.38326836
 270;26.90038109;269.14175415;33.46253204;8.24112701
 271;27.00083351;269.84832764;33.57434845;8.35980511
 272;27.10024261;270.96475220;33.75161362;8.45397282
 273;27.20073318;271.93673706;33.89342880;8.43369198
 274;27.30020714;273.03256226;34.07614899;8.46915054
 275;27.40067863;273.97451782;34.20159912;8.37964916
 276;27.50007248;275.15573120;34.36795807;8.00307178
 277;27.60057259;275.98022461;34.51249695;8.27140808
 278;27.70001793;277.06195068;34.67885590;8.40029526
 279;27.80047226;277.87750244;34.83157730;8.16091728
 280;27.90092850;278.76840210;34.97066498;8.73283577
 281;28.00038338;280.20901489;35.13156891;8.08707142
 282;28.10087395;280.87631226;35.27338028;8.45743084
 283;28.20027351;281.99633789;35.39065170;8.44415379
 284;28.30067825;282.93914795;35.55700684;8.69818878
 285;28.40005302;283.99209595;35.72063828;8.32970715
 286;28.50049210;285.12396240;35.89517975;8.27176666
 287;28.60101318;285.96127319;36.03426361;8.30429459
 288;28.70040321;286.78192139;36.15426254;8.57572651
 289;28.80089569;288.02465820;36.34243774;8.28487206
 290;28.90033913;288.76528931;36.48970413;8.62352562
 291;29.00082397;290.17141724;36.63970184;8.29082584
 292;29.10026932;291.19747925;36.82787704;8.00026703
 293;29.20079041;292.02157593;36.92060089;8.37349987
 294;29.30019951;293.01678467;37.10604858;8.18345642
 295;29.40069962;293.92550659;37.25876999;8.43859291
 296;29.50009346;294.84927368;37.43058395;8.54592705
 297;29.60050011;296.08517456;37.59694290;8.53142357
 298;29.70096588;296.95785522;37.74693680;8.38317299
 299;29.80038452;297.98165894;37.92147446;8.64851093
 300;29.90081024;299.13427734;38.06874466;8.48883724
 301;30.00029564;300.17187500;38.17510223;8.05783844
 302;30.10082436;300.85623169;38.33327866;8.39636040
 303;30.20021057;302.02957153;38.47782135;8.50768852
 304;30.30072021;303.07998657;38.64145279;8.31635857
 305;30.40024567;303.91333008;38.79144669;8.68038845
 306;30.50082016;305.00146484;38.91962433;8.55502605
 307;30.60030174;306.07736206;39.10507202;8.47444344
 308;30.70077133;307.05303955;39.27961349;8.46104336
 309;30.80017662;307.77133179;39.43778992;8.63671398
 310;30.90064240;309.21270752;39.57415009;8.40982342
 311;31.00008011;310.04675293;39.69687271;8.49441528
 312;31.10052681;310.84750366;39.84959412;8.56265926
 313;31.20098305;312.02157593;39.99686050;8.44341183
 314;31.30044365;312.98928833;40.15776443;8.49571896
 315;31.40089226;313.96948242;40.29685211;8.62445545
 316;31.50034714;315.00424194;40.44957352;8.30576992
 317;31.60076141;315.93231201;40.59956741;8.47032452
 318;31.70014191;316.87384033;40.78229141;8.67585087
 319;31.80065155;318.04580688;40.94865036;8.48257637
 320;31.90013123;318.94125366;41.03319168;8.52554893
 321;32.00065231;319.94708252;41.23772812;8.57396507
 322;32.10001373;320.89025879;41.35227203;8.63140678
 323;32.20047760;322.07760620;41.56771851;8.69372368
 324;32.30099869;323.03988647;41.69316864;8.60236073
 325;32.40047836;324.02871704;41.82952881;8.60006523
 326;32.50093842;325.21276855;42.01770401;8.20013905
 327;32.60032272;325.88943481;42.11315536;8.56528759
 328;32.70075226;326.90780640;42.25497055;8.54863739
 329;32.80008316;328.00518799;42.43769073;8.56947327
 330;32.90059662;329.02636719;42.56859589;8.64650631
 331;33.00000381;329.99404907;42.72949982;8.54750919
 332;33.10058975;331.01132202;42.91494751;8.63721085
 333;33.20002365;332.13772583;43.04039764;8.45841312
 334;33.30051422;333.02127075;43.18493652;8.57801628
 335;33.40093613;333.90609741;43.29948044;8.50574112
 336;33.50037766;334.99432373;43.52583694;8.63756275
 337;33.60086060;336.01324463;43.62128830;8.36455917
 338;33.70029449;336.98999023;43.79037476;8.54623413
 339;33.80073929;338.05532837;43.93764114;8.40752697
 340;33.90016556;338.96899414;44.06309128;8.47127151
 341;34.00064850;340.01910400;44.22945023;8.54524422
 342;34.10008621;340.88327026;44.37944412;8.73854065
 343;34.20056915;341.95700073;44.50216675;8.77958107
 344;34.30002975;343.21636963;44.73125076;8.64255047
 345;34.40045547;344.21127319;44.84306717;8.17599487
 346;34.50094604;345.00836182;44.96578979;8.48800564
 347;34.60036469;345.92587280;45.12669373;8.48270607
 348;34.70078278;346.78781128;45.29850388;9.02893639
 349;34.80007553;348.03350830;45.44577408;8.91641808
 350;34.90036774;349.03958130;45.62031174;8.58739376
 351;35.00083923;350.05627441;45.74303436;8.58958054
 352;35.10016632;351.10134888;45.90666580;8.58056641
 353;35.20056915;351.92559814;46.07302475;8.64730740
 354;35.30102539;353.09820557;46.19847488;8.46209049
 355;35.40038300;354.09054565;46.38665009;8.33281136
 356;35.50077820;354.94253540;46.52028275;8.45957375
 357;35.60014343;355.90469360;46.65937042;8.74323940
 358;35.70059967;356.96795654;46.84481812;8.77221394
 359;35.80001450;357.88552856;46.98390198;8.93423557
 360;35.90045929;359.06970215;47.19116974;8.74201393
 361;36.00088501;360.09170532;47.33025742;8.63409424
 362;36.10026169;360.95986938;47.45570755;8.62296295
 363;36.20069885;362.03356934;47.62479019;8.53800392
 364;36.30001068;362.95227051;47.73660660;8.73615456
 365;36.40044022;363.92556763;47.93023682;8.94036388
 366;36.50094223;364.89953613;48.12113953;8.70857143
 367;36.60038376;365.97164917;48.26295090;8.80096531
 368;36.70079422;366.94427490;48.42385483;8.81360149
 369;36.80018616;368.18447876;48.59021378;8.70963287
 370;36.90061569;369.12667847;48.73475647;8.71481895
 371;37.00004196;370.20666504;48.89566040;8.45820522
 372;37.10042572;370.94439697;49.06747055;8.80866528
 373;37.20086288;372.03671265;49.14928818;8.52177238
 374;37.30031967;373.04376221;49.32109833;8.47778702
 375;37.40077209;373.81726074;49.46291351;8.70155048
