Type :,DIL805
Test :,200304 01 Aus 1000°C 5 min quench


;Time;Temperature;Change in Length;HF Power
 46;4.50077105;45.03153229;2.63991261;7.87711239
 47;4.60007381;45.87311935;2.83081532;7.40608215
 48;4.70058680;47.22307205;2.95899296;7.20978785
 49;4.80005503;48.03286362;3.06262589;7.25261116
 50;4.90054703;49.08801270;3.20716667;7.38278484
 51;5.00104094;50.07798386;3.30534506;7.20128965
 52;5.10052299;50.85356140;3.43897724;7.69163132
 53;5.20000601;51.91798019;3.58624506;7.83242273
 54;5.30057287;53.06613159;3.74169445;7.54332256
 55;5.40103817;54.10757065;3.82896423;7.64931393
 56;5.50045776;54.78405762;4.00350380;7.61858082
 57;5.60103416;56.08989334;4.13713598;7.71205425
 58;5.70055819;57.08622360;4.23531437;7.48063278
 59;5.80104113;57.90994263;4.39349127;7.89881897
 60;5.90050077;59.28847504;4.48621511;7.17865753
 61;6.00000477;60.04677963;4.65530062;7.42066193
 62;6.10049391;61.00095749;4.78893280;7.30072117
 63;6.20101500;61.77580261;4.91983747;7.85198784
 64;6.30044603;62.97728729;5.04801464;7.83436346
 65;6.40096092;64.01818848;5.18982887;7.63414860
 66;6.50037622;65.07868195;5.35345936;7.63810921
 67;6.60080719;66.14361572;5.50618172;7.55434752
 68;6.70024109;67.06045532;5.66981220;7.55497503
 69;6.80078220;67.81505585;5.76799107;7.69913387
 70;6.90023184;69.02497101;5.89889622;7.45021725
 71;7.00075197;69.89878082;6.00525570;7.34165621
 72;7.10021210;70.72827148;6.15252399;8.03922558
 73;7.20061302;72.05680847;6.28070164;7.65431166
 74;7.30004311;73.10029602;6.40615177;7.48680115
 75;7.40056181;73.95775604;6.54796505;7.63296890
 76;7.50104713;74.90967560;6.67887020;7.71121073
 77;7.60054922;76.12106323;6.80977535;7.58297014
 78;7.70103502;76.91777039;6.97885990;7.84184694
 79;7.80048800;77.99231720;7.09612942;7.97422171
 80;7.90095901;78.96162415;7.25430584;8.03517056
 81;8.00044918;80.07266235;7.40702820;7.61005592
 82;8.10082912;81.07877350;7.53793240;7.34463978
 83;8.20030594;81.95053864;7.65247440;7.56047773
 84;8.30081463;82.67138672;7.76974297;7.91773224
 85;8.40017986;83.90515137;7.87883091;7.68427134
 86;8.50067425;84.85032654;8.01518917;7.97443295
 87;8.60007954;86.16474915;8.17336655;8.14398479
 88;8.70046043;87.09671783;8.30154419;7.44082880
 89;8.80086040;88.15280151;8.40790367;7.33316469
 90;8.90027142;89.19639587;8.53335476;7.37798595
 91;9.00074863;89.79370117;8.67789459;7.80583811
 92;9.10016441;90.94878387;8.80879974;7.66318893
 93;9.20058060;91.95849609;8.90425110;7.86584663
 94;9.30000305;92.99840546;9.05151939;7.72263813
 95;9.40050507;93.90303040;9.22333145;7.73799610
 96;9.50100040;94.78810883;9.33241844;8.13612747
 97;9.60029411;95.78420258;9.49877739;8.27034092
 98;9.70082474;96.83577728;9.67058945;7.93194103
 99;9.80011940;98.08885956;9.76876831;7.82988930
 100;9.90054321;99.17913055;9.93239880;7.31836510
 101;10.00003910;99.95289612;10.10966587;7.69692230
 102;10.10054970;101.01785278;10.18330002;7.64177895
 103;10.20005417;102.10852814;10.32511330;7.51268339
 104;10.30043983;102.94752502;10.47510815;7.68650961
 105;10.40093994;103.94996643;10.57328701;7.84672642
 106;10.50040627;105.03733063;10.72055435;7.78119326
 107;10.60089588;106.21527863;10.86782265;7.67388535
 108;10.70036697;106.87520599;11.00418186;8.05553818
 109;10.80070591;107.89805603;11.11872387;8.15693283
 110;10.90016460;109.08368683;11.27144527;7.78440952
 111;11.00056076;110.04015350;11.41598606;7.76314449
 112;11.10103607;110.87833405;11.50325584;8.12739944
 113;11.20036602;111.95586395;11.66415977;8.11233902
 114;11.30092144;113.16372681;11.81688213;7.79079628
 115;11.40019989;114.07020569;11.96687698;7.72470903
 116;11.50072575;115.14777374;12.06778336;7.52980614
 117;11.60015583;115.88356781;12.19868755;7.69795322
 118;11.70060062;116.87656403;12.32959270;8.10062408
 119;11.80104733;117.87767029;12.46867847;8.26604462
 120;11.90054131;119.02771759;12.64867306;7.96040440
 121;12.00084591;119.93709564;12.79594040;8.02260494
 122;12.10017014;121.10256195;12.92139149;7.60270357
 123;12.20057106;121.93796539;13.03593254;7.90285397
 124;12.30004501;123.20044708;13.21047211;7.60870457
 125;12.40049744;124.05220032;13.31410599;7.53401804
 126;12.50101089;124.77671814;13.40682983;8.04359627
 127;12.60031223;125.89382935;13.55137062;7.80036163
 128;12.70071125;126.72480011;13.68227577;8.46010113
 129;12.80006504;127.64645386;13.81317902;8.67903519
 130;12.90058708;129.07969666;13.99317360;8.15707397
 131;13.00103092;130.25363159;14.15407753;7.79762936
 132;13.10034561;131.13491821;14.28498268;7.99144173
 133;13.20085526;132.03657532;14.43497849;7.79162693
 134;13.30037594;133.00263977;14.52224731;7.84301233
 135;13.40089130;134.03643799;14.65587997;8.02325058
 136;13.50027180;134.93496704;14.85769081;8.26523590
 137;13.60076714;136.00349426;14.96677780;7.99723577
 138;13.70001030;136.99067688;15.09495544;8.11969852
 139;13.80041981;138.04037476;15.22313309;8.07638931
 140;13.90090561;138.95671082;15.39494514;8.26718998
 141;14.00034142;139.94267273;15.50403404;8.03699398
 142;14.10080624;141.06637573;15.64584732;8.11386108
 143;14.20029831;141.96775818;15.79038811;8.30116081
 144;14.30080318;143.13018799;15.94310951;8.06230736
 145;14.40024853;144.04026794;16.03856087;7.83492327
 146;14.50068188;144.89756775;16.22673607;8.33155060
 147;14.60007668;145.84613037;16.37673187;8.39118099
 148;14.70061779;147.05415344;16.44218445;7.91642475
 149;14.80095673;148.00894165;16.60308838;8.16398239
 150;14.90032291;148.99259949;16.73399162;8.23070621
 151;15.00080204;150.08305359;16.89489555;8.02094841
 152;15.10020065;150.91479492;17.05852699;8.30558109
 153;15.20068741;151.99740601;17.17034149;8.22507668
 154;15.30012703;153.08169556;17.32306480;7.91476154
 155;15.40049458;153.84483337;17.47851372;8.38453197
 156;15.50092220;155.13752747;17.60396385;8.06970692
 157;15.60036087;156.07487488;17.73486900;8.01885414
 158;15.70088768;156.87380981;17.92031670;8.27278519
 159;15.80028152;157.98240662;18.03758621;8.27155495
 160;15.90084934;158.91572571;18.16576385;8.25726128
 161;16.00028801;160.13224792;18.32939339;8.14856625
 162;16.10079384;160.93321228;18.44666290;8.36182404
 163;16.20021820;162.11410522;18.58847618;8.00488663
 164;16.30069923;163.06809998;18.71392632;8.08196640
 165;16.40016365;163.90336609;18.86119461;8.27431583
 166;16.50064468;164.97328186;19.02482605;8.27004051
 167;16.60005569;165.97796631;19.18027496;8.32847977
 168;16.70055962;166.89486694;19.29754448;8.47270584
 169;16.80000877;168.03742981;19.41753960;8.36330605
 170;16.90052032;169.01173401;19.52117348;8.55798435
 171;17.00092506;169.95526123;19.73934746;8.36739445
 172;17.10039520;170.86254883;19.86479759;8.46187019
 173;17.20094109;172.06755066;19.97388458;8.28104496
 174;17.30046082;173.16015625;20.12388039;7.96490288
 175;17.40081787;174.08813477;20.25751305;8.21586418
 176;17.50015068;175.04988098;20.43478012;8.14708614
 177;17.60069084;176.01141357;20.58204651;8.22195816
 178;17.70005608;176.73876953;20.73476982;8.54054165
 179;17.80055618;177.91403198;20.85203743;8.55620193
 180;17.90004158;179.16665649;21.01021576;8.20046711
 181;18.00053787;180.09054565;21.16566467;8.31148434
 182;18.10003090;180.95204163;21.28020668;8.26755905
 183;18.20052719;181.96391296;21.42747307;8.29264736
 184;18.30097198;183.13662720;21.55019760;8.24429226
 185;18.40038872;183.99470520;21.70019150;8.38355064
 186;18.50092888;185.02139282;21.85018730;8.37937832
 187;18.60039330;185.93933105;21.99200058;8.40646362
 188;18.70084763;187.00216675;22.15017700;8.43997097
 189;18.80026817;187.88916016;22.29199028;8.73636627
 190;18.90076447;189.15214539;22.48289299;8.10162640
 191;19.00020409;190.03234863;22.59470749;8.38253975
 192;19.10073090;191.04019165;22.74470329;8.32855034
 193;19.20007896;191.84683228;22.89197159;8.68304825
 194;19.30055428;193.03892517;23.00923920;8.54804897
 195;19.40104866;193.96966553;23.18650627;8.50261021
 196;19.50058365;195.09741211;23.29014015;8.28001881
 197;19.60103989;196.12524414;23.43740654;8.18455505
 198;19.70045471;196.96513367;23.62830925;8.45155144
 199;19.80090141;198.03640747;23.74557877;8.48282433
 200;19.90032005;199.00399780;23.87648392;8.34660816
 201;20.00083542;200.12165833;24.02375221;8.32871723
 202;20.10029221;201.15426636;24.14374733;8.23846054
 203;20.20085716;201.96852112;24.28283310;8.38980770
 204;20.30029297;202.91978455;24.43010139;8.56207085
 205;20.40084267;203.77998352;24.56373405;8.83214855
 206;20.50034142;205.19856262;24.72191048;8.34495258
 207;20.60084915;206.15921021;24.90463257;8.23587322
 208;20.70037460;207.12315369;25.01917267;8.38714314
 209;20.80084991;208.07298279;25.17189598;8.14879417
 210;20.90022278;208.90238953;25.34916306;8.57470417
 211;21.00067329;210.11827087;25.48279381;8.54137802
 212;21.10011864;210.93821716;25.61369896;8.65316868
 213;21.20060921;211.79931641;25.76914787;8.71271610
 214;21.30007935;213.15486145;25.90823555;8.35228825
 215;21.40056038;213.89718628;26.06368446;8.79722786
 216;21.50004959;215.02934265;26.25185966;8.71819687
 217;21.60045052;216.12597656;26.40458298;8.46707630
 218;21.70087051;217.33871460;26.53275871;8.17999363
 219;21.80032539;218.33880615;26.68548203;8.09435081
 220;21.90088081;218.90876770;26.82456779;8.42481518
 221;22.00028992;219.96574402;26.95274544;8.52129364
 222;22.10075569;220.67294312;27.10001373;9.03911018
 223;22.20018005;222.09648132;27.25273514;8.80109978
 224;22.30059052;223.06938171;27.39454842;8.47050667
 225;22.40009499;224.10174561;27.53908920;8.49011230
 226;22.50064087;225.01875305;27.68635750;8.46981907
 227;22.60011101;225.95175171;27.80908203;8.69092560
 228;22.70066833;226.90084839;27.98089409;8.77194977
 229;22.80010605;228.25109863;28.11452484;8.63135815
 230;22.90064812;228.96719360;28.25633812;8.96307659
 231;23.00019455;230.27671814;28.43633270;8.51482868
 232;23.10069466;231.07870483;28.58360100;8.45198441
 233;23.20009995;232.09451294;28.69814301;8.51409054
 234;23.30051422;232.92240906;28.84813690;8.64999676
 235;23.40102005;233.94586182;29.01722145;8.74188614
 236;23.50044250;235.09829712;29.12631035;8.60216999
 237;23.60093880;236.09242249;29.30085182;8.65390396
 238;23.70030594;236.97889709;29.45630074;8.50154686
 239;23.80077934;237.86572266;29.60629463;8.72095013
 240;23.90024185;239.04626465;29.75083351;8.67218685
 241;24.00073051;240.21205139;29.92810249;8.64917660
 242;24.10019112;241.08058167;30.10536766;8.54079056
 243;24.20072746;242.11198425;30.20900154;8.68301201
 244;24.30018044;242.97282410;30.38354301;8.78481579
 245;24.40066528;244.00659180;30.47626686;8.53084087
 246;24.50008583;244.77244568;30.67262459;8.95869732
 247;24.60054588;245.94680786;30.81170845;8.88212681
 248;24.70104218;247.07330322;30.99715614;9.01814365
 249;24.80032921;248.06092834;31.13078880;8.60773945
 250;24.90070152;249.07766724;31.30533028;8.68898487
 251;25.00023079;249.86402893;31.37351036;8.91660500
 252;25.10073090;250.98568726;31.56714058;8.82880306
 253;25.20015907;252.00308228;31.72531700;8.87551880
 254;25.30070114;252.94940186;31.92167091;8.92949677
 255;25.40012169;254.03317261;32.07439423;8.59149170
 256;25.50064278;254.90168762;32.17802429;8.89686680
 257;25.60010910;256.00222778;32.34438324;8.75044632
 258;25.70068741;257.15316772;32.52438354;8.48878860
 259;25.80015945;257.96505737;32.65528107;8.84133244
 260;25.90064812;258.92630005;32.78346252;8.79452515
 261;26.00005913;259.89505005;32.93891144;8.86187935
 262;26.10062408;261.13574219;33.09981537;8.90764809
 263;26.20006943;261.91943359;33.24435425;8.99689007
 264;26.30054092;263.09878540;33.42434692;8.67098904
 265;26.40003967;264.14102173;33.54707336;8.57173538
 266;26.50053215;265.14263916;33.71343231;8.77425194
 267;26.60097122;265.88717651;33.85797119;9.08618546
 268;26.70035553;266.92117310;34.08432770;8.96679592
 269;26.80076027;268.18170166;34.19341278;8.81399918
 270;26.90016556;269.20056152;34.34341431;8.55770302
 271;27.00060081;270.02938843;34.51795197;8.67598915
 272;27.10005951;270.95947266;34.66521454;8.89217281
 273;27.20060158;272.04135132;34.80157471;8.60314941
 274;27.30002022;272.85021973;34.93793488;8.98898506
 275;27.40056229;273.93572998;35.05792999;8.94971371
 276;27.50007820;274.98895264;35.25156403;9.07902050
 277;27.60049629;276.09518433;35.45610046;8.84164715
 278;27.70085144;277.13357544;35.60609436;8.78546619
 279;27.80031776;278.11257935;35.72063446;8.72409725
 280;27.90081787;278.92196655;35.87609100;9.00788975
 281;28.00017738;279.85330200;36.02608490;8.95112419
 282;28.10054016;281.02243042;36.19516754;9.01340771
 283;28.20092010;282.00485229;36.38334656;8.80646706
 284;28.30031013;283.05026245;36.53334045;8.83143044
 285;28.40081024;284.01626587;36.63970184;8.78665066
 286;28.50018692;284.92623901;36.81150818;8.79059410
 287;28.60067177;286.02697754;36.96423340;8.85169888
 288;28.70004272;287.01113892;37.11150360;8.90193844
 289;28.80049706;288.03305054;37.26967621;9.14406109
 290;28.90078545;289.04910278;37.44694519;8.98695660
 291;29.00003815;290.14093018;37.60511780;8.95080566
 292;29.10062790;290.87170410;37.74420929;9.18482018
 293;29.20100784;292.04342651;37.91874695;8.93085003
 294;29.30030060;293.13113403;38.07692719;8.73462200
 295;29.40077019;294.14904785;38.21601105;8.64046478
 296;29.50015450;294.95205688;38.33328247;8.55936241
 297;29.60066414;295.76974487;38.49691010;9.11241436
 298;29.70004463;296.92794800;38.67963409;9.20224667
 299;29.80049133;298.08740234;38.81326294;9.18538475
 300;29.90096092;299.09420776;39.00962067;9.06910038
 301;30.00046539;300.10543823;39.14052582;8.95952988
 302;30.10088158;301.18286133;39.32051849;8.77165890
 303;30.20036697;302.00347900;39.42414856;8.72915840
 304;30.30096245;303.01199341;39.59596252;9.14550686
 305;30.40036583;304.02493286;39.75686646;8.90554047
 306;30.50080681;304.90484619;39.89322662;9.25034618
 307;30.60012054;306.16033936;40.07321930;9.11752129
 308;30.70062065;307.14962769;40.25048828;9.06654549
 309;30.80001640;308.09249878;40.41139221;9.00515652
 310;30.90052223;308.96649170;40.55047607;9.00112915
 311;31.00104332;310.05847168;40.73046875;9.03029060
 312;31.10049248;311.18240356;40.85047150;8.81083107
 313;31.20088768;311.97854614;41.01682281;9.08475685
 314;31.30021858;312.93389893;41.18318176;9.18612862
 315;31.40074730;314.01748657;41.29772949;9.14632702
 316;31.50017357;315.01934814;41.46681213;9.13003159
 317;31.60071754;315.98791504;41.60044098;9.20834541
 318;31.70011711;316.96990967;41.75862122;9.14632607
 319;31.80065918;317.98306274;41.91952515;9.31881618
 320;31.90018272;319.15460205;42.06406403;8.67068386
 321;32.00057220;319.96328735;42.18405914;9.00177765
 322;32.10094452;320.88601685;42.32041931;9.22081280
 323;32.20040894;321.97799683;42.48405457;9.20194912
 324;32.30088425;322.83673096;42.68040466;9.59378147
 325;32.40029144;324.30691528;42.82495117;9.11953068
 326;32.50080490;325.20007324;42.99403381;9.07963943
 327;32.60023880;326.04061890;43.13311768;9.14400101
 328;32.70071030;326.89965820;43.29402161;9.17338848
 329;32.80017471;328.03451538;43.44674683;8.97936440
 330;32.90060806;328.78457642;43.59674072;9.50707626
 331;33.00097275;330.11004639;43.73036957;8.92615795
 332;33.10039520;330.85147095;43.87763977;9.29775906
 333;33.20072937;331.95089722;44.02490997;9.11360645
 334;33.30025101;332.92800903;44.19672394;9.28409767
 335;33.40080643;333.90481567;44.34126282;9.24033356
 336;33.50025177;335.03298950;44.52398682;9.27492046
 337;33.60072708;336.24880981;44.64943695;9.03889561
 338;33.70022202;336.99011230;44.79943085;9.05640697
 339;33.80067062;337.85745239;44.95760345;9.24099827
 340;33.90014648;338.83880615;45.10214233;9.47864151
 341;34.00062561;339.83438110;45.25486755;9.45081806
 342;34.10007095;340.96542358;45.38577271;9.33827019
 343;34.20055008;342.15756226;45.60667419;9.31688881
 344;34.30092239;342.97592163;45.71303558;9.39965057
 345;34.40040588;344.05957031;45.86848450;9.07245827
 346;34.50096130;344.92800903;46.02938843;9.34462929
 347;34.60042953;346.07894897;46.16301727;9.22165775
 348;34.70102310;347.06759644;46.33483124;9.41666222
 349;34.80048370;347.91149902;46.48482513;9.54403019
 350;34.90100479;349.13018799;46.66482544;9.21765709
 351;35.00052643;350.02215576;46.81481934;9.28135300
 352;35.10100555;351.08880615;46.93753815;9.18250656
 353;35.20048523;352.16781616;47.11753082;9.09786987
 354;35.30103683;352.95742798;47.25934601;9.41533470
 355;35.40054321;353.87707520;47.40661621;9.40525436
 356;35.50001526;355.06747437;47.60569763;9.29085732
 357;35.60048676;355.88723755;47.77478790;9.71224594
 358;35.70097733;357.21450806;47.92750549;9.39406395
 359;35.80041122;358.16174316;48.06386566;9.18445206
 360;35.90085602;358.93289185;48.25476837;9.28706837
 361;36.00034332;360.01910400;48.36385345;9.28034306
 362;36.10083771;360.96618652;48.54657745;9.29573250
 363;36.20031357;361.90814209;48.68839264;9.51750088
 364;36.30090714;363.02301025;48.87929535;9.33850002
 365;36.40033340;363.98059082;49.05110931;9.36695957
 366;36.50084686;365.05886841;49.19019318;9.32580662
 367;36.60030746;365.87927246;49.36200714;9.44354820
 368;36.70082092;367.16760254;49.53926849;9.34632683
 369;36.80023956;367.99316406;49.70017242;9.40636253
 370;36.90073013;369.05133057;49.86653137;9.18927574
 371;37.00022888;370.03097534;49.98107910;9.42460155
 372;37.10073853;370.94158936;50.12834167;9.42874718
 373;37.20022964;371.95239258;50.29197693;9.51904869
 374;37.30066681;373.00317383;50.44197083;9.54386997
 375;37.40006256;374.04397583;50.63832855;9.57590199
 376;37.50056839;374.95428467;50.76377869;9.50666046
 377;37.60098267;376.07629395;50.91649628;9.43003082
 378;37.70045471;377.04858398;51.07740021;9.45547485
 379;37.80098343;377.66595459;51.20012665;9.72105885
 380;37.90042496;378.92257690;51.39648438;9.57262611
 381;38.00100327;379.95639038;51.55193329;9.45705700
 382;38.10044861;380.99758911;51.69920349;9.51328659
 383;38.20090866;381.80163574;51.86556244;9.72286701
 384;38.30041885;383.08435059;52.04282379;9.55038261
 385;38.40093231;384.04547119;52.20645905;9.49827290
 386;38.50038528;385.04760742;52.34554291;9.34556103
 387;38.60083008;385.75555420;52.55281067;9.81108475
 388;38.70029068;386.93475342;52.67552948;9.69094276
 389;38.80080414;388.01168823;52.85279846;9.46558571
 390;38.90029526;388.97027588;53.02733612;9.67287922
 391;39.00082397;389.94772339;53.14188385;9.69863987
 392;39.10032272;391.03128052;53.30823517;9.39436531
 393;39.20086670;392.01950073;53.43641663;9.40687084
 394;39.30028152;392.84649658;53.64095306;9.48163795
 395;39.40082550;393.97109985;53.78004456;9.73293591
 396;39.50023270;395.06079102;53.92730713;9.66241837
 397;39.60075760;396.04583740;54.13185120;9.70203495
 398;39.70024490;397.23529053;54.24365997;9.55146599
 399;39.80078888;398.15832520;54.39365387;9.46693802
 400;39.90024567;398.88711548;54.57910919;9.80407143
 401;40.00079727;399.97027588;54.72910309;9.55234623
 402;40.10033417;400.88589478;54.87909698;9.99325180
 403;40.20083618;401.94738770;55.03726959;9.97747040
 404;40.30023956;402.93783569;55.22817230;9.88839340
 405;40.40076447;404.16473389;55.42726135;9.49662590
 406;40.50023651;405.12762451;55.51180267;9.46678543
 407;40.60078430;405.96343994;55.69179535;9.60778427
 408;40.70027542;407.04901123;55.84452057;9.72597694
 409;40.80074692;407.88052368;56.00269318;10.03660583
 410;40.90008163;408.97488403;56.17723846;9.95595360
 411;41.00045013;410.02117920;56.36540985;9.85095119
 412;41.10095215;411.04818726;56.53176880;9.66597462
 413;41.20045471;411.92913818;56.67085266;9.71137810
 414;41.30099869;412.97543335;56.80175781;9.81832314
 415;41.40035248;413.82156372;56.95993805;9.99163151
 416;41.50084305;415.02807617;57.11811066;10.07319832
 417;41.60007477;416.15420532;57.28992462;9.74891472
