Type :,DIL805
Test :,200304 08 Aus 1000°C 10 min quench


;Time;Temperature;Change in Length;HF Power
 1;0.00000000;27.19783783;0.00000000;0.00000000
 2;0.10073400;27.08135414;-0.23453784;0.00000000
 3;0.20019300;27.21592903;-0.18817568;0.00000000
 4;0.30072501;26.86819077;-0.19090295;0.00000000
 5;0.40021399;26.99991608;-0.20999312;0.00000000
 6;0.50072902;27.44801331;-0.18817568;0.00000000
 7;0.60017401;27.09634209;-0.20453882;0.00000000
 8;0.70070702;27.37970161;-0.23181057;0.00000000
 9;0.80016297;27.12340927;-0.20181155;0.00000000
 10;0.90061998;26.73568344;-0.23453784;0.00000000
 11;1.00012100;27.01394081;-0.21544743;0.00000000
 12;1.10062695;27.28425980;-0.18817568;0.00000000
 13;1.20007706;27.15069580;-0.20181155;0.00000000
 14;1.30061698;27.09440041;-0.22635627;0.00000000
 15;1.40104795;27.15360260;-0.24817371;0.00000000
 16;1.50047302;27.35263252;-0.21817470;0.00000000
 17;1.60098803;27.16377068;-0.22090197;0.00000000
 18;1.70037198;27.18790245;-0.23453784;0.00000000
 19;1.80090797;27.12751007;-0.20181155;0.67214966
 20;1.90034699;27.18382263;-0.22908354;0.00000000
 21;2.00079799;27.13862038;-0.22362900;0.00000000
 22;2.10028291;27.21687317;-0.18272138;0.54328442
 23;2.20080304;27.05115128;-0.20726585;0.00000000
 24;2.30030799;27.14659500;-0.19635725;0.00000000
 25;2.40080810;26.99293137;-0.23453784;0.00000000
 26;2.50023890;26.99000549;-0.19362998;0.36797649
 27;2.60072398;27.24805450;-0.21272039;0.17820112
 28;2.70015812;27.19684601;-0.22635627;0.31591415
 29;2.80070591;27.11249924;-0.20453882;2.37729692
 30;2.90017390;27.25503922;-0.20453882;7.55515003
 31;3.00060010;29.14640045;-0.06817961;7.46017838
 32;3.10107493;31.06413078;0.06817937;7.84346628
 33;3.20043993;31.98444557;0.17181230;7.35473394
 34;3.30096006;33.13150024;0.31908035;7.10945988
 35;3.40044999;34.06679916;0.41998601;7.15267849
 36;3.50101089;34.95275879;0.56725383;7.32172394
 37;3.60045505;35.92591476;0.68997717;7.42531872
 38;3.70098209;36.67556000;0.80451870;7.45248222
 39;3.80044603;37.90639877;0.90269732;7.39265156
 40;3.90095711;38.69017792;1.06360126;7.67137003
 41;4.00040197;39.97153473;1.20268750;7.44030190
 42;4.10090685;40.91872787;1.31722903;7.41003418
 43;4.20032215;41.92538452;1.43995214;7.37754297
 44;4.30076218;43.10089493;1.61994624;7.35855532
 45;4.40014219;43.86353302;1.69630742;7.59605312
 46;4.50062799;44.74107742;1.86266541;7.55171299
 47;4.60004187;46.00328827;1.96629834;7.56878376
 48;4.70056677;46.97238922;2.12720227;7.55497980
 49;4.80002213;48.14800262;2.29083323;7.31124210
 50;4.90055323;49.07150650;2.37810302;7.41006374
 51;5.00001287;50.12236404;2.54173398;7.19292688
 52;5.10059023;51.04024124;2.68900180;7.52422523
 53;5.20005894;52.02011108;2.75990891;7.49686909
 54;5.30051517;53.27749634;2.90717673;7.30701494
 55;5.40102577;54.18371582;3.05444455;7.29974747
 56;5.50048018;55.11849976;3.16353154;7.27607775
 57;5.60097122;55.90190506;3.30534530;7.67554808
 58;5.70041180;56.81932831;3.44443154;7.56392050
 59;5.80098581;58.06638336;3.56988215;7.59448051
 60;5.90041018;58.99264526;3.72533154;7.42632484
 61;6.00088596;60.00645447;3.82078290;7.38602591
 62;6.10029984;61.02177811;3.95168757;7.42965126
 63;6.20081091;61.87620163;4.10441017;7.62189293
 64;6.30030203;63.03697586;4.25440502;7.46870136
 65;6.40075684;63.99482346;4.33076572;7.56952524
 66;6.50018692;65.01981354;4.48348808;7.61071491
 67;6.60073709;66.14514923;4.64439201;7.37689686
 68;6.70022821;66.86222839;4.74529743;7.48891830
 69;6.80077314;67.92723846;4.91438293;7.52330685
 70;6.90025902;69.17420959;5.02074242;7.24931526
 71;7.00074911;69.81355286;5.14619350;7.64870358
 72;7.10018396;70.86856842;5.29891586;7.59947205
 73;7.20070410;72.09632111;5.44072914;7.54597902
 74;7.30015898;72.97388458;5.55527020;7.30180311
 75;7.40064001;73.98871613;5.73526478;7.52699280
 76;7.50009012;74.97679138;5.83889771;7.58353615
 77;7.60057592;75.92755890;5.95889378;7.72940159
 78;7.70000887;76.87304688;6.10343456;7.25827932
 79;7.80057096;77.95322418;6.23161221;7.50986862
 80;7.90004587;79.10877991;6.36524391;7.49585819
 81;8.00061226;79.94113159;6.47705841;7.74712181
 82;8.10006237;81.13351440;6.61614513;7.50158262
 83;8.20056725;81.98590088;6.76613998;7.71512556
 84;8.30101395;82.98466492;6.88613605;7.28651762
 85;8.40053368;84.11006927;7.03613091;7.20982790
 86;8.50097275;84.93350983;7.17249012;7.54281282
 87;8.60047913;86.09941101;7.27066898;7.38227606
 88;8.70103073;86.92397308;7.44520855;7.60525131
 89;8.80044842;88.08269501;7.57884026;7.71387529
 90;8.90096378;89.05106354;7.69338226;7.52210808
 91;9.00047398;89.88436890;7.82701397;7.34272671
 92;9.10105038;91.05687714;7.98519039;7.63175488
 93;9.20047379;91.91071320;8.08882332;7.64303493
 94;9.30103207;92.87738037;8.22518253;7.71688938
 95;9.40048504;94.24674225;8.33154297;7.38592196
 96;9.50102711;94.98160553;8.47335625;7.54238558
 97;9.60048199;96.07041168;8.62607861;7.45337582
 98;9.70095730;96.90660095;8.76789188;7.68292427
 99;9.80038738;98.03755188;8.89061546;7.78857327
 100;9.90084743;99.06796265;8.99970245;7.51570225
 101;10.00025177;100.27401733;9.17151451;7.35840988
 102;10.10072327;100.92818451;9.29696560;7.57992744
 103;10.20024681;101.93146515;9.38696194;7.48244476
 104;10.30072212;102.90613556;9.53150272;7.73622942
 105;10.40013695;103.95919037;9.65695286;7.83572435
 106;10.50060272;104.92012024;9.81785679;7.87958813
 107;10.60006809;105.94187927;9.93512630;7.71649122
 108;10.70056343;106.98808289;10.10421085;7.54320526
 109;10.80001831;107.97438812;10.21875286;7.68342447
 110;10.90053940;108.97860718;10.36329365;7.43875694
 111;11.00101376;109.97323608;10.44510937;7.34048843
 112;11.10054016;110.86243439;10.58419514;7.50691843
 113;11.20105553;112.00656128;10.74782658;7.75934649
 114;11.30058479;112.89842224;10.87054920;7.92802715
 115;11.40008545;113.85664368;11.07236099;8.01310635
 116;11.50046539;115.07734680;11.17872143;7.81811476
 117;11.60087967;116.18679810;11.32598877;7.51562023
 118;11.70035553;117.05697632;11.44053078;7.47456551
 119;11.80088139;117.81330109;11.55779934;7.74278641
 120;11.90030956;118.73544312;11.71052170;7.80896235
 121;12.00086784;120.07810974;11.86324406;7.64321518
 122;12.10027122;121.08602142;11.95051384;7.66791725
 123;12.20088291;121.84207916;12.08960056;7.76726246
 124;12.30030441;122.88035583;12.23414135;7.85472822
 125;12.40074730;123.88337708;12.33777428;7.86030245
 126;12.50023270;124.99103546;12.51504040;7.75328827
 127;12.60066891;125.90024567;12.59958363;7.76426077
 128;12.70009804;127.01564789;12.79866791;7.77817249
 129;12.80068016;128.04560852;12.85321140;7.76990652
 130;12.90008259;128.91802979;13.04956913;7.90924788
 131;13.00061417;129.83686829;13.16956425;7.78540373
 132;13.10005760;131.21269226;13.27865124;7.39799547
 133;13.20057487;132.25988770;13.42319202;7.63062525
 134;13.30103397;132.97817993;13.55409718;7.58084822
 135;13.40046406;133.86708069;13.69045734;8.07561207
 136;13.50089931;134.94657898;13.84317875;7.80253124
 137;13.60020828;136.05747986;13.97953701;7.67865562
 138;13.70076942;137.06881714;14.10771465;7.65817642
 139;13.80014324;138.02340698;14.25771046;7.78673124
 140;13.90064526;139.10208130;14.37225246;7.71596718
 141;14.00008869;140.09637451;14.55224705;7.97052479
 142;14.10062122;141.01545715;14.72405910;7.78346586
 143;14.20005608;142.11727905;14.80860043;7.82082987
 144;14.30056477;142.94490051;14.96132374;8.05533409
 145;14.40104198;144.07775879;15.10859203;7.69881153
 146;14.50039864;144.95669556;15.26676846;7.49863243
 147;14.60095596;145.82476807;15.36221981;8.14231300
 148;14.70027542;146.88534546;15.52857685;7.97994184
 149;14.80067062;148.01295471;15.65675449;7.96190643
 150;14.90014362;149.01164246;15.80402279;7.69865608
 151;15.00066662;150.11564636;15.90765667;7.77605772
 152;15.10011959;150.82720947;16.03310776;8.07474709
 153;15.20057106;151.94154358;16.19946480;7.92073298
 154;15.30099964;153.07704163;16.33309746;7.59619808
 155;15.40048218;154.06494141;16.49127388;7.72440910
 156;15.50097561;155.02136230;16.60854340;7.85479784
 157;15.60045719;155.98817444;16.73944664;8.02853489
 158;15.70082188;156.75811768;16.88398743;8.06327057
 159;15.80035210;157.84608459;17.00671196;8.09738731
 160;15.90091324;159.03375244;17.16488838;7.77569485
 161;16.00019073;159.83627319;17.26306725;8.24758148
 162;16.10052109;161.01654053;17.43215179;7.88335848
 163;16.20095634;161.91931152;17.56851196;8.20550251
 164;16.30031013;163.11857605;17.71032524;7.74365711
 165;16.40061951;164.03736877;17.86850166;7.96188545
 166;16.50000954;164.88017273;18.01304245;8.17234802
 167;16.60037994;165.98097229;18.14122009;7.93887138
 168;16.70081329;167.07856750;18.26667023;7.82173634
 169;16.80025864;167.85169983;18.41939163;8.03856945
 170;16.90061951;169.12614441;18.56938744;7.89538145
 171;17.00093460;169.93649292;18.71392822;7.92059851
 172;17.10044861;170.83329773;18.80937958;7.85401249
 173;17.20093536;171.93809509;18.96210098;8.03902721
 174;17.30023766;172.91650391;19.12300491;7.94776011
 175;17.40061760;173.78036499;19.27572823;8.03933430
 176;17.50101852;175.03350830;19.39026833;8.06243420
 177;17.60039711;176.11814880;19.52390099;8.02741623
 178;17.70090294;177.02192688;19.67662239;8.13535500
 179;17.80037117;177.98129272;19.81571007;8.07055187
 180;17.90088463;179.07467651;19.96297836;8.11402512
 181;18.00026321;180.01841736;20.08297348;8.16154861
 182;18.10076332;180.99539185;20.19751549;8.12720394
 183;18.20021820;181.83457947;20.34205627;8.10395432
 184;18.30069923;183.01364136;20.48114204;8.20584202
 185;18.40008354;183.98588562;20.65568161;8.00618744
 186;18.50062943;184.93124390;20.81385803;8.04464149
 187;18.60012054;185.82003784;20.91476440;8.19516182
 188;18.70063782;187.16400146;21.08112144;7.95769310
 189;18.80003548;187.96635437;21.22020912;8.02863693
 190;18.90038109;188.99816895;21.29929733;8.04498005
 191;19.00083542;189.85903931;21.49565315;8.14771938
 192;19.10019875;190.87335205;21.62110519;8.06783581
 193;19.20074844;191.96374512;21.76019096;8.13625908
 194;19.30018997;193.05415344;21.95927429;7.99906683
 195;19.40055847;193.89808655;22.12017822;8.14427376
 196;19.50099564;195.04585266;22.21290398;8.05381775
 197;19.60044479;196.04164124;22.39016914;8.24056435
 198;19.70092964;196.90336609;22.52925682;8.14773941
 199;19.80042076;198.01109314;22.62470818;8.01539326
 200;19.90086937;198.98634338;22.77197456;8.17211246
 201;20.00031090;200.05712891;22.92742538;8.09091187
 202;20.10081673;200.79940796;23.11014557;8.48592281
 203;20.20030785;202.17915344;23.23832321;7.99004555
 204;20.30070686;202.65621948;23.39922714;8.32972527
 205;20.40005112;203.83062744;23.53013229;8.20516777
 206;20.50057220;205.30906677;23.67740059;7.83595610
 207;20.60099792;206.01359558;23.78921509;8.06575680
 208;20.70028687;207.01448059;23.96648216;8.08276939
 209;20.80077553;208.00975037;24.09738541;8.02374935
 210;20.90018654;208.91625977;24.21738243;8.21583176
 211;21.00061417;210.01103210;24.34283257;8.16481781
 212;21.10011673;210.99928284;24.50646400;8.20903778
 213;21.20067787;212.05410767;24.62373161;8.29576397
 214;21.30011559;212.93750000;24.79281807;8.21707821
 215;21.40063095;214.20835876;24.95644951;7.97404814
 216;21.50102615;214.90153503;25.10099030;8.21199036
 217;21.60037231;215.95559692;25.29189301;8.21083355
 218;21.70091820;217.22300720;25.42552376;8.06195450
 219;21.80034256;217.85644531;25.55642891;8.38668442
 220;21.90079117;219.12203979;25.72278786;8.06755257
 221;22.00027084;220.01335144;25.83460236;8.16931248
 222;22.10073853;221.03480530;25.99823189;8.23447514
 223;22.20015717;222.03402710;26.13731956;8.21449471
 224;22.30070114;223.22959900;26.27367783;8.11635971
 225;22.40011215;223.95115662;26.40185547;8.24234772
 226;22.50065422;224.95979309;26.57366753;8.39197063
 227;22.60020447;225.90005493;26.73457146;8.36878681
 228;22.70071983;226.94789124;26.86820412;8.36712074
 229;22.80014420;228.13464355;27.04547119;8.17131042
 230;22.90063095;228.94790649;27.17364883;8.22091293
 231;23.00020981;229.94357300;27.34000587;8.36655712
 232;23.10069466;230.96353149;27.47363853;8.58250427
 233;23.20017624;232.18380737;27.60999680;8.00212860
 234;23.30067825;233.00393677;27.72999382;8.14698029
 235;23.40015602;234.04597473;27.89362526;8.32551193
 236;23.50071716;234.78581238;28.02998352;8.62325954
 237;23.60023117;236.03025818;28.19361496;8.33339119
 238;23.70086288;236.97412109;28.34088326;8.37391853
 239;23.80032349;237.92642212;28.49087715;8.23656845
 240;23.90086365;238.88787842;28.65178108;8.48725128
 241;24.00028419;240.10342407;28.77723122;8.13323975
 242;24.10081482;241.02812195;28.90813637;8.21707630
 243;24.20031929;241.75531006;29.07722092;8.51342964
 244;24.30088043;242.94271851;29.24630737;8.40264034
 245;24.40029526;243.77610779;29.36357498;8.64045334
 246;24.50087166;244.95573425;29.52175140;8.41532898
 247;24.60029602;245.94598389;29.69902039;8.30385590
 248;24.70087242;247.10632324;29.84083176;8.11977482
 249;24.80032730;247.82040405;29.98264694;8.41910934
 250;24.90080261;248.91448975;30.13809586;8.34979439
 251;25.00026131;249.77813721;30.26354599;8.61296940
 252;25.10075760;250.87887573;30.41353989;8.57571888
 253;25.20011330;252.00050354;30.59353638;8.43511391
 254;25.30059242;253.04624939;30.73262024;8.51018906
 255;25.40003204;253.90266418;30.88806915;8.45340157
 256;25.50053787;254.89538574;31.03806686;8.74440861
 257;25.60001183;256.17587280;31.20169830;8.38769150
 258;25.70052719;256.93093872;31.33260345;8.38421059
 259;25.80001259;258.20861816;31.49623108;8.33744431
 260;25.90052986;259.01800537;31.64622879;8.49703217
 261;26.00103569;260.05429077;31.77986145;8.30237007
 262;26.10054016;260.90179443;31.97348785;8.49336052
 263;26.20098686;261.98757935;32.11257553;8.28427696
 264;26.30038452;262.93536377;32.22711945;8.42509937
 265;26.40084457;264.01806641;32.42347336;8.16663933
 266;26.50027084;264.84127808;32.57347107;8.53875732
 267;26.60071373;265.94061279;32.69346619;8.54103851
 268;26.70008469;266.86389160;32.86528015;8.61956787
 269;26.80062675;267.86602783;33.00436401;8.84896755
 270;26.90002060;268.94540405;33.17345047;8.49356842
 271;27.00043488;269.84368896;33.31798935;8.70560932
 272;27.10091019;271.03210449;33.44889450;8.42188454
 273;27.20033455;271.87265015;33.60161591;8.53566647
 274;27.30083084;272.67013550;33.72161484;8.76245403
 275;27.40026665;274.02920532;33.89888000;8.45299625
 276;27.50072098;275.06286621;34.04342270;8.32017422
 277;27.60017014;275.84957886;34.21250534;8.54305077
 278;27.70066643;277.04891968;34.34341049;8.22887707
 279;27.80011559;278.06036377;34.50704193;8.49332619
 280;27.90059280;278.99011230;34.67612839;8.43866539
 281;28.00005531;280.01257324;34.81521225;8.33196163
 282;28.10061646;280.99090576;35.00884247;8.46431923
 283;28.20007133;281.89035034;35.12338638;8.70453930
 284;28.30058289;282.94396973;35.30610657;8.41050053
 285;28.40004158;283.99618530;35.42882919;8.50473499
 286;28.50053215;284.99728394;35.60064316;8.51412010
 287;28.60099792;286.02606201;35.78609085;8.59607983
 288;28.70041656;286.95214844;35.94153976;8.39933968
 289;28.80082703;288.11990356;36.06698990;8.43516445
 290;28.90023422;289.07299805;36.21698761;8.44965744
 291;29.00067711;289.92724609;36.37788773;8.61524773
 292;29.10010338;290.82376099;36.51970291;8.74129868
 293;29.20057678;292.00152588;36.69969559;8.55970478
 294;29.30001259;292.96615601;36.81423950;8.75917053
 295;29.40050697;293.85800171;36.94514465;8.73327541
 296;29.50104332;294.98709106;37.14968109;8.63981056
 297;29.60047913;296.00592041;37.27785873;8.61508846
 298;29.70096970;297.00637817;37.41694641;8.48920345
 299;29.80040359;298.09500122;37.58057785;8.43021774
 300;29.90093994;298.89880371;37.77420807;8.84671879
 301;30.00037384;300.13861084;37.89420319;8.46496010
 302;30.10081482;301.16104126;38.05510712;8.40961647
 303;30.20026588;301.98175049;38.21873856;8.51756287
 304;30.30071831;302.91864014;38.33327866;8.71876431
 305;30.40017891;304.00350952;38.47782135;8.49056053
 306;30.50073051;305.08718872;38.67417908;8.57176685
 307;30.60022163;306.11148071;38.80235672;8.68328667
 308;30.70076180;306.78836060;38.95780563;8.74263668
 309;30.80023575;308.06881714;39.10507202;8.66472340
 310;30.90073776;309.11309814;39.24415970;8.51154232
 311;31.00019646;310.08233643;39.42415237;8.66043663
 312;31.10066795;311.29110718;39.54687500;8.38278961
 313;31.20012665;311.78695679;39.74868774;8.82091236
 314;31.30067825;312.93023682;39.87686539;8.66637325
 315;31.40013123;314.03970337;39.99686050;8.58521843
 316;31.50066376;315.04217529;40.16594696;8.63470268
 317;31.60016441;316.02441406;40.32139587;8.77469921
 318;31.70069885;316.88302612;40.46593475;8.74819088
 319;31.80012321;317.86026001;40.66774750;8.90327168
 320;31.90061569;319.02896118;40.79592514;8.66877460
 321;32.00013351;320.06671143;40.94864655;8.67070961
 322;32.10072327;321.10989380;41.10409546;8.53445721
 323;32.20015335;321.93719482;41.23227310;8.80898571
 324;32.30067062;323.03875732;41.38772583;8.93905067
 325;32.40013885;323.96041870;41.54044724;8.63278580
 326;32.50064087;325.13894653;41.69862366;8.57672501
 327;32.60013580;325.90338135;41.82952881;8.81163502
 328;32.70069122;326.92410278;41.98225021;8.79073143
 329;32.80009842;327.76651001;42.13769913;8.96157742
 330;32.90058517;329.00820923;42.26587677;8.86852837
 331;33.00007248;329.89953613;42.45677948;8.82360554
 332;33.10060883;331.02236938;42.57950211;8.66520023
 333;33.20000458;331.92495728;42.74586105;8.69211960
 334;33.30048370;333.04946899;42.89039993;8.76823235
 335;33.40092087;333.95523071;43.02676010;8.88311863
 336;33.50039673;335.01013184;43.19857407;8.74572182
 337;33.60092545;335.94458008;43.34856796;8.83172607
 338;33.70035934;337.09439087;43.52583694;8.56732082
 339;33.80089569;337.89877319;43.64037704;8.62686920
 340;33.90041351;338.90960693;43.80128098;8.67387009
 341;34.00099182;339.94680786;43.94309235;8.87308216
 342;34.10046768;341.03231812;44.15308762;8.69036674
 343;34.20095062;342.12869263;44.28672028;8.66065693
 344;34.30040359;343.16378784;44.43671417;8.44069576
 345;34.40089035;343.97601318;44.53489304;8.73507404
 346;34.50024796;345.08157349;44.69579697;8.63099957
 347;34.60070419;345.93725586;44.85397339;8.84258175
 348;34.70014191;347.16519165;44.98215103;8.72915649
 349;34.80063629;348.17880249;45.14850998;8.66784954
 350;34.90009308;348.97052002;45.31759262;8.88713646
 351;35.00068283;349.99124146;45.45122528;8.77379227
 352;35.10013962;351.11141968;45.62576675;8.68915272
 353;35.20063400;351.84695435;45.78667068;9.10415554
 354;35.30103302;353.12255859;45.94484711;8.75983810
 355;35.40040207;353.86087036;46.06756973;8.93819427
 356;35.50093842;354.99044800;46.21756363;8.99941158
 357;35.60041809;355.80725098;46.38937759;8.98959637
 358;35.70097733;356.84170532;46.54755402;9.01914692
 359;35.80037308;358.13662720;46.69482040;8.66176510
 360;35.90078735;359.02871704;46.83936310;8.81597233
 361;36.00023270;359.98828125;47.01935577;8.77630424
 362;36.10073471;361.20666504;47.17480469;8.70839691
 363;36.20016479;361.84432983;47.30298233;8.96976376
 364;36.30070114;362.92477417;47.44752502;8.80580616
 365;36.40013885;363.93579102;47.61660767;9.15849972
 366;36.50053024;365.23171997;47.79387665;8.77759075
 367;36.60091019;365.82812500;47.94114304;9.10090828
 368;36.70029831;367.19857788;48.11841202;8.62014008
 369;36.80070877;368.06109619;48.25204086;9.09211063
 370;36.90011215;369.13757324;48.42658234;8.99638081
 371;37.00053024;369.96038818;48.57112122;8.89555264
 372;37.10003662;370.99188232;48.75657272;9.00464153
 373;37.20037460;371.75869751;48.88747787;9.21856976
 374;37.30096436;372.99609375;49.05110550;8.82538319
 375;37.40038681;374.11083984;49.21473694;8.67625141
